,X,Y,Z,A,B,G,Vx,Vy,Vz,Va,Vb,Vg,Time,Square,Circle
602,-10.23565,-5.703838,-19.16534,-0.6887573628523451,0.18216018856357338,2.683698543012073,-1.1159999999999528,1.6742999999998822,-0.5579999999999764,0.0,0.0958709358120429,-0.11510446416901687,12.06009,0,1
603,-10.26914,-5.636865,-19.18767,-0.6883739140156819,0.18714572157189516,2.679097855103816,-1.674500000000059,3.348650000000069,-1.116500000000033,0.01917244183315999,0.249276650416094,-0.230034395412853,12.08009,0,1
604,-10.32495,-5.569892,-19.23232,-0.6876068418094304,0.1944321221331211,2.6725773050183648,-2.790500000000022,3.348650000000069,-2.2325000000000847,0.0383536103125756,0.3643200280613054,-0.3260275042725594,12.10009,0,1
605,-10.41425,-5.480596,-19.32161,-0.6883739140156819,0.20747095337599514,2.6614560670246568,-4.465000000000081,4.464800000000097,-4.464500000000011,-0.0383536103125756,0.6519415621437152,-0.5560618996854124,12.12009,0,1
606,-10.4589,-5.435947,-19.41091,-0.690291332731923,0.21399028173096957,2.6545532898330193,-2.2324999999998867,2.2324499999998797,-4.464999999999773,-0.09587093581204706,0.3259664177486995,-0.3451388595818494,12.14009,0,1
607,-10.48122,-5.402461,-19.47788,-0.6925923748177523,0.2143737305676327,2.652252945878891,-1.1160000000000518,1.674300000000031,-3.348499999999959,-0.11505210429146563,0.019172441833157215,-0.1150171977064154,12.16009,0,1
608,-10.47006,-5.380136,-19.53369,-0.6948932423706563,0.21130579080847708,2.652252945878891,0.5580000000000259,1.116249999999998,-2.790500000000111,-0.11504337764520446,-0.15339698795778423,0.0,12.18009,0,1
609,-10.44773,-5.368975,-19.57834,-0.6968108356198225,0.20747095337599514,2.6537870902913943,1.116500000000033,0.5580500000000329,-2.2325000000000847,-0.09587966245831119,-0.19174187162410142,0.0767072206251623,12.20009,0,1
610,-10.42541,-5.357812,-19.61183,-0.6983448054994004,0.203635941410588,2.6557034618100834,1.1159999999999528,0.558149999999953,-1.6744999999999102,-0.07669849397888877,-0.19175059827034419,0.09581857593445228,12.22009,0,1
611,-10.40309,-5.346651,-19.64531,-0.6991117031727266,0.2009514504880955,2.6576215786580257,1.115999999999963,0.5580500000000329,-1.6739999999999002,-0.03834488366631443,-0.134224546124627,0.0959058423971169,12.24009,0,1
612,-10.38076,-5.346651,-19.66764,-0.699495326542315,0.1994174806085177,2.6591557230705285,1.116500000000033,0.0,-1.116500000000033,-0.01918116847942116,-0.0766984939788928,0.0767072206251401,12.26009,0,1
613,-10.3696,-5.346651,-19.70112,-0.6998787753789781,0.19980092944518085,2.6606898674830317,0.5580000000000259,0.0,-1.6740000000000779,-0.01917244183315444,0.019172441833158603,0.0767072206251623,12.28009,0,1
614,-10.35844,-5.335488,-19.73461,-0.7002622242156413,0.20056800165143238,2.661840039460096,0.5579999999999764,0.558149999999953,-1.6744999999999102,-0.019172441833158287,0.03835361031257358,0.05750859885320259,12.30009,0,1
615,-10.33611,-5.313164,-19.77926,-0.7006456730523044,0.20210197153101017,2.663374183872599,1.116500000000033,1.116199999999991,-2.2325000000000847,-0.01917244183315444,0.07669849397889142,0.0767072206251623,12.32009,0,1
616,-10.32495,-5.302002,-19.81274,-0.7002622242156413,0.20248542036767334,2.665292300720541,0.5580000000000259,0.5581000000000399,-1.6740000000000779,0.01917244183315444,0.019172441833158603,0.0959058423970947,12.34009,0,1
617,-10.2803,-5.257353,-19.85739,-0.6998787753789781,0.2028690437372617,2.668358844216295,2.232499999999996,2.2324500000000334,-2.232499999999907,0.01917244183315999,0.019181168479418385,0.1533271747877129,12.36009,0,1
618,-10.23565,-5.212705,-19.90204,-0.6987282543360634,0.2028690437372617,2.6710449059351142,2.2325000000000847,2.2324000000000708,-2.2325000000000847,0.05752605214573559,0.0,0.1343030859409595,12.38009,0,1
619,-10.16868,-5.145732,-19.94669,-0.6971942844564856,0.2028690437372617,2.6741114494308684,3.3484999999997505,3.3486499999997714,-2.2324999999998867,0.07669849397888877,0.0,0.15332717478769928,12.40009,0,1
620,-10.07938,-5.067598,-20.0025,-0.6956603145769079,0.20248542036767334,2.6767957658204353,4.465000000000081,3.9067000000000576,-2.790500000000111,0.07669849397888448,-0.019181168479418385,0.1342158194783478,12.42009,0,1
621,-9.978926,-4.978301,-20.05831,-0.6937428958606668,0.20248542036767334,2.6794800822100022,5.022700000000154,4.464850000000104,-2.790499999999933,0.09587093581205557,0.0,0.1342158194783478,12.44009,0,1
622,-9.84498,-4.855517,-20.13645,-0.6910584049381744,0.20248542036767334,2.6833163159058864,6.693953023487926,6.136131934032697,-3.90504747626174,0.13415746739092077,0.0,0.19171582688075783,12.4601,0,1
623,-9.744521,-4.755059,-20.20342,-0.6891408116890082,0.203635941410588,2.686384604730892,5.022950000000056,5.022900000000093,-3.348500000000137,0.09587966245831119,0.057526052145734204,0.1534144412502802,12.4801,0,1
624,-9.644062,-4.6546,-20.25923,-0.6876068418094304,0.2051699112901658,2.6886849486850206,5.022950000000145,5.0229500000001,-2.790499999999933,0.07669849397889003,0.07669849397889142,0.1150171977064376,12.5001,0,1
625,-9.532441,-4.554141,-20.33736,-0.6860728719298527,0.20632043233308048,2.690985292639149,5.581050000000095,5.0229500000001,-3.906500000000163,0.07669849397889003,0.05752605214573559,0.1150171977064154,12.5201,0,1
626,-9.431982,-4.44252,-20.40434,-0.684922350886938,0.20670388116974364,2.692903409487091,5.022949999999698,5.581049999999644,-3.3489999999998203,0.05752605214573048,0.0191724418331569,0.09590584239710839,12.5401,0,1
627,-9.331524,-4.330898,-20.48247,-0.6837720043769485,0.2070873300064068,2.6940535814641553,5.022900000000093,5.581100000000102,-3.906499999999985,0.05751732549947442,0.019172441833158603,0.0575085988532077,12.5601,0,1
628,-9.231065,-4.208115,-20.56061,-0.6833883810073601,0.2070873300064068,2.694821526335033,5.022950000000145,6.139150000000135,-3.907000000000144,0.01918116847942116,0.0,0.038397243543887,12.5801,0,1
629,-9.141768,-4.096494,-20.6499,-0.6830049321706969,0.20632043233308048,2.6952037534412194,4.464850000000015,5.58105000000014,-4.464500000000011,0.01917244183315999,-0.038344883666317206,0.019111355309320694,12.6001,0,1
630,-9.052471,-3.996035,-20.7392,-0.6833883810073601,0.20478646245350265,2.695971698312097,4.464849999999708,5.022949999999653,-4.464999999999773,-0.019172441833158287,-0.07669849397888599,0.03839724354388359,12.6201,0,1
631,-8.963174,-3.895576,-20.81733,-0.6833883810073601,0.2028690437372617,2.6971218702891613,4.464850000000104,5.0229500000001,-3.906499999999985,0.0,-0.09587093581205001,0.0575085988532077,12.6401,0,1
632,-8.873877,-3.795117,-20.90663,-0.6837720043769485,0.20056800165143238,2.698272042266226,4.464850000000104,5.022950000000122,-4.4650000000001695,-0.01918116847942116,-0.11505210429146841,0.057508598853229904,12.6601,0,1
633,-8.78458,-3.716982,-20.98477,-0.6845389020502748,0.19865058293519142,2.6998061866787286,4.464850000000104,3.9067500000000868,-3.907000000000144,-0.03834488366631443,-0.09587093581205001,0.0767072206251401,12.6801,0,1
634,-8.695283,-3.65001,-21.07406,-0.6853059742565263,0.19634954084936207,2.700572386220354,4.464849999999708,3.3485999999997644,-4.464499999999615,-0.038353610312572194,-0.11505210429145957,0.038309977081271894,12.7001,0,1
635,-8.605987,-3.594199,-21.1522,-0.686839944136104,0.19404849876353275,2.7013403310912314,4.464800000000053,2.790550000000051,-3.907000000000144,-0.07669849397889003,-0.11505210429146841,0.0383972435438648,12.7201,0,1
636,-8.516689,-3.571875,-21.24149,-0.6887573628523451,0.19174763121062863,2.702106530632857,4.4649000000001555,1.1162000000000354,-4.464500000000011,-0.09587093581205557,-0.11504337764520862,0.0383099770812753,12.7401,0,1
637,-8.438555,-3.560713,-21.31963,-0.6914418537748376,0.18983003796146244,2.7032584479391732,3.906700000000102,0.5581000000000177,-3.907000000000144,-0.13422454612462562,-0.09587966245831119,0.0575958653158194,12.7601,0,1
638,-8.349257,-3.560713,-21.40893,-0.69412634469733,0.18829606808188465,2.704024647480799,4.464900000000067,0.0,-4.4650000000001695,-0.13422454612462562,-0.07669849397889142,0.038309977081297505,12.7801,0,1
639,-8.259961,-3.571875,-21.48706,-0.6971942844564856,0.18752917040855835,2.7047908470224242,4.464799999999657,-0.5580999999999682,-3.906499999999638,-0.15339698795776643,-0.03834488366631241,0.03830997708124969,12.8001,0,1
640,-8.181827,-3.594199,-21.5652,-0.6991117031727266,0.18714572157189516,2.7059427643287406,3.906700000000102,-1.1162000000000354,-3.907000000000144,-0.09587093581205557,-0.01917244183315999,0.0575958653158194,12.8201,0,1
641,-8.103691,-3.627686,-21.63217,-0.7010292964218928,0.18676209820230683,2.706708963870366,3.906800000000116,-1.674350000000038,-3.348499999999959,-0.09587966245831119,-0.019181168479416998,0.0383099770812753,12.8401,0,1
642,-8.025557,-3.65001,-21.69914,-0.7025632663014706,0.18714572157189516,2.707476908741244,3.906700000000102,-1.1162000000000132,-3.348500000000137,-0.07669849397889003,0.019181168479416998,0.038397243543887,12.8601,0,1
643,-7.958584,-3.683496,-21.75495,-0.7044806850177117,0.18791261924522148,2.70785913584743,3.3469765117439185,-1.6734632683657311,-2.7891054472762775,-0.09582302429989892,0.03832572080591157,0.019101804407115803,12.88011,0,1
644,-7.880449,-3.728145,-21.83309,-0.7067817271035409,0.1894465891247993,2.708243108282869,3.906750000000109,-2.2324500000000556,-3.9069999999999663,-0.11505210429146563,0.0766984939788928,0.0191986217719324,12.90011,0,1
645,-7.835801,-3.750469,-21.87774,-0.7079320736135304,0.18983003796146244,2.708243108282869,2.2324000000000264,-1.1162000000000132,-2.2325000000000847,-0.05751732549947442,0.019172441833157215,0.0,12.92011,0,1
646,-7.77999,-3.795117,-21.93354,-0.7098496668626966,0.19059711016771397,2.708627080718308,2.7905499999998256,-2.2323999999998505,-2.789999999999882,-0.09587966245830268,0.03835361031257358,0.019198621771952896,12.94011,0,1
647,-7.735342,-3.839766,-22.00052,-0.7121505344156007,0.19174763121062863,2.709009307824495,2.2324000000000264,-2.2324500000000556,-3.349000000000118,-0.11504337764521001,0.057526052145734204,0.0191113553093429,12.96011,0,1
648,-7.690693,-3.884414,-22.05633,-0.71445157650143,0.19289815225354331,2.708627080718308,2.2324500000000778,-2.2324000000000486,-2.790499999999933,-0.11505210429146563,0.05752605214573559,-0.0191113553093429,12.98011,0,1
649,-7.657207,-3.9179,-22.1233,-0.716368995217671,0.1951990198064474,2.70785913584743,1.674300000000031,-1.674300000000031,-3.348500000000137,-0.09587093581205001,0.11504337764520724,-0.038397243543887,13.00011,0,1
650,-7.646045,-3.940225,-22.20144,-0.7182865884668371,0.19750006189227673,2.7063249914349274,0.558099999999946,-1.1162499999999211,-3.9069999999997966,-0.09587966245830268,0.11505210429145818,-0.07670722062513328,13.02011,0,1
651,-7.623721,-3.962549,-22.26841,-0.719820558346415,0.19903403177185455,2.7051748194578633,1.1162000000000354,-1.1162000000000354,-3.348499999999959,-0.07669849397889558,0.0766984939788928,-0.0575085988532077,13.04011,0,1
652,-7.601397,-3.984873,-22.33538,-0.7213545282259928,0.1994174806085177,2.7044086199162374,1.116199999999991,-1.1162000000000132,-3.348500000000137,-0.07669849397889003,0.019172441833157215,-0.038309977081297505,13.06011,0,1
653,-7.590234,-4.007197,-22.41352,-0.7232719469422337,0.19980092944518085,2.7036406750453597,0.5581500000000469,-1.1162000000000132,-3.9069999999999663,-0.09587093581205001,0.019172441833158603,-0.038397243543887,13.08011,0,1
654,-7.579072,-4.040684,-22.50281,-0.7263398867013894,0.2001845528147692,2.702106530632857,0.558099999999946,-1.6743499999998892,-4.464499999999792,-0.15339698795777199,0.019181168479416682,-0.07670722062513328,13.10011,0,1
655,-7.56791,-4.07417,-22.59211,-0.729024377623882,0.2013348993247587,2.69942221424329,0.5580999999999955,-1.674300000000031,-4.4650000000001695,-0.13422454612463117,0.05751732549947581,-0.1342158194783478,13.12011,0,1
656,-7.545586,-4.118818,-22.69257,-0.7317088685463744,0.20248542036767334,2.696737897853722,1.1162000000000354,-2.2324000000000708,-5.023000000000018,-0.13422454612462562,0.057526052145732816,-0.1342158194783922,13.14011,0,1
657,-7.523262,-4.152305,-22.78187,-0.7343933594688669,0.20401939024725116,2.6940535814641553,1.1162000000000354,-1.674350000000038,-4.4650000000001695,-0.13422454612462562,0.0766984939788928,-0.1342158194783478,13.16011,0,1
658,-7.500937,-4.208115,-22.88232,-0.7378447480646856,0.2051699112901658,2.6925194370516525,1.116249999999899,-2.7904999999998186,-5.0224999999995905,-0.1725694297909247,0.0575260521457277,-0.07670722062513328,13.18011,0,1
659,-7.467451,-4.275088,-22.98278,-0.7412961366605044,0.20670388116974364,2.690985292639149,1.6743000000000754,-3.348650000000069,-5.023000000000196,-0.1725694297909456,0.0766984939788942,-0.07670722062518451,13.20011,0,1
660,-7.433965,-4.353223,-23.08324,-0.7455145974625748,0.20785440221265827,2.6898351206620847,1.674300000000031,-3.9067500000000646,-5.023000000000018,-0.2109230401035212,0.057526052145732816,-0.0575085988532077,13.22011,0,1
661,-7.400478,-4.420195,-23.1837,-0.7489661605913186,0.2086214744189098,2.688300976249582,1.674350000000038,-3.348600000000062,-5.023000000000196,-0.17257815643719568,0.03835361031257699,-0.0767072206251401,13.24011,0,1
662,-7.366992,-4.49833,-23.28416,-0.7524175491871374,0.20938837209223612,2.686384604730892,1.674300000000031,-3.906750000000109,-5.023000000000018,-0.1725694297909456,0.038344883666317206,-0.0958185759345052,13.26011,0,1
663,-7.333506,-4.554141,-23.38462,-0.7551020401096299,0.21053889313515076,2.6840825154475114,1.6742999999998822,-2.7905499999998256,-5.022999999999749,-0.1342245461246137,0.0575260521457277,-0.11510446416901687,13.28011,0,1
664,-7.311182,-4.598789,-23.47392,-0.7574030821954593,0.21168941417806542,2.6825483710350086,1.1162000000000354,-2.2324000000000264,-4.464999999999992,-0.11505210429147118,0.057526052145734204,-0.0767072206251401,13.30011,0,1
665,-7.30002,-4.643437,-23.57438,-0.7593205009117002,0.2128397606880549,2.6806319995163186,0.5578210894552784,-2.231284357821158,-5.020489755122729,-0.09582302429990187,0.05748858120887246,-0.0957706905892124,13.32012,0,1
666,-7.288857,-4.676924,-23.66367,-0.7612379196279413,0.2143737305676327,2.679097855103816,0.558149999999953,-1.6743499999998892,-4.464499999999615,-0.09587093581204706,0.0766984939788846,-0.07670722062513328,13.34012,0,1
667,-7.288857,-4.721572,-23.75297,-0.7631555128771073,0.21629132381679889,2.6775637106913126,0.0,-2.2324000000000708,-4.4650000000001695,-0.09587966245830008,0.09587966245831119,-0.0767072206251623,13.36012,0,1
668,-7.288857,-4.755059,-23.8311,-0.7646894827566851,0.2178252936963767,2.675263366737184,0.0,-1.674350000000038,-3.906499999999985,-0.07669849397889558,0.0766984939788928,-0.1150171977064376,13.38012,0,1
669,-7.288857,-4.799707,-23.9204,-0.766223452636263,0.21935926357595453,2.672961277453804,0.0,-2.2324000000000264,-4.4650000000001695,-0.07669849397889558,0.0766984939788928,-0.1151044641690049,13.40012,0,1
670,-7.30002,-4.844356,-24.0097,-0.768140871352504,0.2205097846188692,2.669892988628798,-0.558149999999953,-2.2324499999998797,-4.464999999999596,-0.09587093581204151,0.05752605214572909,-0.15341444125028877,13.42012,0,1
671,-7.311182,-4.877842,-24.09899,-0.7700582900687449,0.22242720333511015,2.6668264451330437,-0.5580999999999955,-1.674300000000031,-4.464500000000188,-0.09587093581205001,0.09587093581205001,-0.1533271747877129,13.44012,0,1
672,-7.322344,-4.92249,-24.17713,-0.7723593321545742,0.22396117321468795,2.6641403834142245,-0.5581000000000399,-2.2324000000000264,-3.9069999999999663,-0.11505210429146563,0.07669849397889142,-0.1343030859409595,13.46012,0,1
673,-7.322344,-4.967139,-24.25526,-0.7746603742404037,0.22511169425760263,2.662607984330973,0.0,-2.2324500000000778,-3.906500000000163,-0.11505210429147673,0.05752605214573559,-0.0766199541625728,13.48012,0,1
674,-7.333506,-5.011787,-24.3334,-0.7769612417933076,0.2262622153005173,2.6614560670246568,-0.558099999999946,-2.2323999999998283,-3.9069999999997966,-0.11504337764518868,0.05752605214572909,-0.05759586531581429,13.50012,0,1
675,-7.322344,-5.067598,-24.40037,-0.7788786605095487,0.22741273634343195,2.659921922612154,0.5580999999999955,-2.7905500000000734,-3.348499999999959,-0.09587093581205557,0.057526052145734204,-0.0767072206251401,13.52012,0,1
676,-7.311182,-5.145732,-24.46734,-0.781179702595378,0.22856308285342142,2.6583895235289035,0.5581000000000399,-3.9067000000000576,-3.348500000000137,-0.11505210429146563,0.05751732549947442,-0.0766199541625284,13.54012,0,1
677,-7.288857,-5.235029,-24.53432,-0.7842476423545337,0.22971360389633605,2.6560874342455225,1.116249999999998,-4.464850000000104,-3.349000000000118,-0.15339698795779116,0.057526052145732816,-0.1151044641690493,13.56012,0,1
678,-7.277695,-5.346651,-24.60129,-0.7869321332770262,0.23163102261257706,2.654171062726833,0.5580999999999904,-5.581099999999607,-3.3484999999996616,-0.1342245461246137,0.09587093581204428,-0.09581857593447449,13.58012,0,1
679,-7.277695,-5.469434,-24.6571,-0.7853981633974483,0.23278154365549172,2.6514850010080138,0.0,-6.139150000000135,-2.790500000000111,0.07669849397889558,0.057526052145734204,-0.1343030859409595,13.60012,0,1
680,-7.30002,-5.569892,-24.66826,-0.7765777929566445,0.23354861586174322,2.649184657053885,-1.1162500000000424,-5.022900000000138,-0.5580000000000259,0.4410185220401968,0.0383536103125756,-0.1150171977064376,13.62012,0,1
681,-7.322344,-5.614541,-24.64594,-0.7620049918341927,0.23354861586174322,2.646116368228879,-1.1162000000000354,-2.2324500000000334,1.1160000000000518,0.7286400561226081,0.0,-0.1534144412503024,13.64012,0,1
682,-7.344668,-5.636865,-24.60129,-0.7420632088667559,0.23431551353506952,2.6422818798622476,-1.1162000000000354,-1.1162000000000354,2.2325000000000847,0.9970891483718592,0.03834488366631582,-0.1917244183315777,13.66012,0,1
683,-7.366992,-5.636865,-24.57896,-0.732859389589289,0.23431551353506952,2.6407477354497444,-1.116199999999892,0.0,1.1164999999999339,0.46019096387331593,0.0,-0.07670722062515549,13.68012,0,1
684,-7.378154,-5.636865,-24.54548,-0.7217379770626559,0.23431551353506952,2.63959756347268,-0.5581000000000399,0.0,1.6739999999999002,0.556070626331668,0.0,-0.057508598853229904,13.70012,0,1
685,-7.389317,-5.625703,-24.52316,-0.7167524440543341,0.23239809481882853,2.639981535908119,-0.5581500000000025,0.5581000000000399,1.1160000000000518,0.24927665041609123,-0.0958709358120514,0.019198621771954603,13.72012,0,1
686,-7.389317,-5.636865,-24.52316,-0.7152184741747563,0.23048067610258757,2.6407477354497444,0.0,-0.5581000000000399,0.0,0.07669849397889558,-0.09587093581205001,0.0383099770812753,13.74012,0,1
687,-7.389317,-5.636865,-24.52316,-0.7156020975443447,0.2293301550596729,2.6407477354497444,0.0,0.0,0.0,-0.019171582688075783,-0.057497303493983194,0.0,13.76013,0,1
688,-7.389317,-5.636865,-24.52316,-0.7159855463810079,0.22856308285342142,2.639981535908119,0.0,0.0,0.0,-0.01917244183315999,-0.0383536103125756,-0.0383099770812753,13.78013,0,1
689,-7.389317,-5.636865,-24.52316,-0.7167524440543341,0.22856308285342142,2.638829618601803,0.0,0.0,0.0,-0.03834488366631443,0.0,-0.0575958653157972,13.80013,0,1
690,-7.378154,-5.636865,-24.52316,-0.7179029650972488,0.22856308285342142,2.6372972195185516,0.558149999999953,0.0,0.0,-0.05752605214573048,0.0,-0.07661995416256599,13.82013,0,1
691,-7.378154,-5.636865,-24.52316,-0.7186700373035003,0.22817963401675825,2.635763075106049,0.0,0.0,0.0,-0.0383536103125756,-0.019172441833158603,-0.0767072206251401,13.84013,0,1
692,-7.35583,-5.636865,-24.50083,-0.7190534861401634,0.2277961851800951,2.6338449582581065,1.1162000000000354,0.0,1.116500000000033,-0.01917244183315444,-0.019172441833158603,-0.0959058423971169,13.86013,0,1
693,-7.344668,-5.636865,-24.47851,-0.7182865884668371,0.2270291129738436,2.631926841410165,0.5580999999999955,0.0,1.1160000000000518,0.03834488366631443,-0.0383536103125756,-0.09590584239707249,13.88013,0,1
