,X,Y,Z,A,B,G,Vx,Vy,Vz,Va,Vb,Vg,Time,Square,Circle
539,-9.956601,-5.904756,-18.95326,-34.01367,3.14209,159.9829,0.0,0.0,0.0,-1.0984999999998257,1.0986500000000243,0.0,10.80006,0,1
540,-9.956601,-5.915918,-18.96442,-34.07959,3.120117,160.0049,0.0,-0.5580999999999955,-0.5580000000000259,-3.2960000000003467,-1.0986500000000243,1.0999999999995915,10.82006,0,1
541,-9.956601,-5.915918,-18.96442,-34.12354,3.098145,160.0049,0.0,0.0,0.0,-2.19749999999981,-1.0986000000000173,0.0,10.84006,0,1
542,-9.956601,-5.915918,-18.96442,-34.16748,3.098145,160.0269,0.0,0.0,0.0,-2.1969999999998118,0.0,1.100000000000915,10.86006,0,1
543,-9.945439,-5.92708,-18.96442,-34.29932,3.054199,160.0269,0.5580999999999511,-0.5581000000000399,0.0,-6.592000000000338,-2.1973000000000487,0.0,10.88006,0,1
544,-9.945439,-5.92708,-18.97559,-34.49707,3.010254,160.0269,0.0,0.0,-0.558500000000007,-9.887500000000172,-2.1972500000000417,0.0,10.90006,0,1
545,-9.945439,-5.938242,-18.97559,-34.62891,2.944336,160.0488,0.0,-0.5580999999999955,0.0,-6.591999999999983,-3.2959000000000884,1.0949999999994253,10.92006,0,1
546,-9.934278,-5.938242,-18.98675,-34.78271,2.856445,160.1367,0.558049999999939,0.0,-0.5579999999999764,-7.689999999999678,-4.3945499999997,4.39499999999923,10.94006,0,1
547,-9.923115,-5.949404,-18.98675,-35.04639,2.768555,160.2466,0.5581500000000913,-0.5581000000000399,0.0,-13.18400000000032,-4.394500000000083,5.495000000000633,10.96006,0,1
548,-9.900791,-5.960567,-19.02024,-35.68359,2.658691,160.3784,1.116199999999991,-0.5581500000000025,-1.674500000000059,-31.860000000000678,-5.493200000000115,6.5900000000000585,10.98006,0,1
549,-9.878467,-5.982891,-19.06488,-36.78223,2.526855,160.4224,1.116199999999991,-1.1162000000000354,-2.231999999999926,-54.932000000000976,-6.591800000000155,2.200000000000604,11.00006,0,1
550,-9.856143,-6.005215,-19.09837,-37.68311,2.438965,160.3125,1.1161999999999808,-1.116199999999892,-1.6744999999999102,-45.043999999997,-4.394499999999693,-5.495000000000145,11.02006,0,1
551,-9.84498,-6.016377,-19.13186,-38.36426,2.329102,160.1587,0.5581500000000025,-0.5581000000000399,-1.674500000000059,-34.05750000000084,-5.4931500000001305,-7.6899999999996504,11.04006,0,1
552,-9.833818,-6.016377,-19.16534,-38.93555,2.15332,160.0488,0.5580999999999511,0.0,-1.6740000000000779,-28.56450000000049,-8.78910000000018,-5.495000000000633,11.06006,0,1
553,-9.800332,-5.994053,-19.19883,-39.44092,1.955566,159.9829,1.6743000000001198,1.1162000000000354,-1.674500000000059,-25.2685000000005,-9.88770000000021,-3.2950000000000292,11.08006,0,1
554,-9.778008,-5.938242,-19.22115,-39.79248,1.757813,160.0269,1.116199999999991,2.7905500000000734,-1.1160000000000518,-17.578000000000333,-9.887650000000203,2.200000000000604,11.10006,0,1
555,-9.744521,-5.860107,-19.23232,-39.96826,1.604004,160.1807,1.6743499999998448,3.9067499999997173,-0.5584999999999574,-8.788999999999564,-7.690449999999485,7.689999999998967,11.12006,0,1
556,-9.711035,-5.770811,-19.23232,-39.99023,1.516113,160.3784,1.6734632683658797,4.462568715642361,0.0,-1.0979510244876027,-4.392353823088629,9.880059970015267,11.14007,0,1
557,-9.666387,-5.592217,-19.25464,-39.88037,1.472168,160.752,2.2324000000000708,8.929700000000208,-1.1159999999998742,5.4929999999999986,-2.1972500000000528,18.680000000000916,11.16007,0,1
558,-9.610577,-5.346651,-19.31045,-39.66064,1.625977,161.1035,2.790499999999863,12.278299999999179,-2.790499999999863,10.98649999999918,7.690449999999485,17.574999999998177,11.18007,0,1
559,-9.57709,-5.168056,-19.37742,-39.48486,1.779785,161.2134,1.6743499999999936,8.92975000000017,-3.348500000000137,8.789000000000344,7.690400000000161,5.495000000000633,11.20007,0,1
560,-9.521279,-4.889004,-19.48904,-39.28711,1.955566,161.3452,2.7905500000000734,13.9526000000003,-5.581000000000044,9.887500000000172,8.789050000000186,6.5900000000000585,11.22007,0,1
561,-9.465468,-4.743896,-19.55602,-39.19922,1.955566,161.4771,2.7905500000000734,7.255400000000133,-3.349000000000118,4.394500000000172,0.0,6.5950000000002245,11.24007,0,1
562,-9.365009,-4.509492,-19.68996,-39.15527,1.977539,161.6968,5.022949999999609,11.720199999999235,-6.696999999999501,2.197499999999615,1.0986499999999269,10.984999999998704,11.26007,0,1
563,-9.231065,-4.275088,-19.85739,-39.24316,1.955566,161.9385,6.697200000000213,11.720200000000231,-8.371500000000154,-4.394500000000172,-1.0986500000000243,12.085000000000692,11.28007,0,1
564,-9.063633,-4.07417,-20.08064,-39.50684,1.911621,162.2021,8.371600000000168,10.045900000000245,-11.162500000000247,-13.183999999999966,-2.1972500000000417,13.180000000000117,11.30007,0,1
565,-8.873877,-3.929063,-20.37085,-39.99023,1.867676,162.4878,9.48780000000016,7.255350000000126,-14.510500000000402,-24.169500000000514,-2.1972500000000528,14.284999999999874,11.32007,0,1
566,-8.639473,-3.817441,-20.70571,-40.71533,1.757813,162.8174,11.72019999999919,5.581099999999629,-16.742999999998823,-36.25499999999779,-5.493149999999621,16.47999999999885,11.34007,0,1
567,-8.36042,-3.739307,-21.07406,-41.59424,1.472168,163.2788,13.952650000000352,3.9067000000000798,-18.41750000000037,-43.94550000000082,-14.282250000000312,23.07000000000037,11.36007,0,1
568,-8.059043,-3.683496,-21.45358,-42.45117,1.010742,163.8501,15.068850000000255,2.7905500000000734,-18.976000000000376,-42.84650000000084,-23.071300000000488,28.565000000001003,11.38007,0,1
569,-7.746504,-3.627686,-21.82192,-43.19824,0.4833984,164.4214,15.626950000000384,2.790500000000044,-18.41700000000039,-37.353500000000835,-26.367180000000563,28.565000000001003,11.40007,0,1
570,-7.467451,-3.583037,-22.16795,-43.76953,0.1538086,164.7729,13.95264999999907,2.2324499999998575,-17.301499999998956,-28.564499999998308,-16.47948999999889,17.574999999998177,11.42007,0,1
571,-7.255371,-3.560713,-22.50281,-44.20898,0.1538086,164.7949,10.604000000000195,1.1162000000000354,-16.743000000000308,-21.972500000000153,0.0,1.1000000000010126,11.44007,0,1
572,-7.087939,-3.571875,-22.82651,-44.60449,0.3955078,164.6191,8.371600000000168,-0.5581000000000177,-16.185000000000283,-19.775500000000502,12.08496000000026,-8.790000000000662,11.46007,0,1
573,-6.942832,-3.594199,-23.13905,-44.93408,0.6811523,164.3994,7.2553500000001705,-1.1162000000000354,-15.627000000000436,-16.47950000000051,14.282225000000306,-10.98499999999968,11.48007,0,1
574,-6.797725,-3.638848,-23.42927,-45.21973,0.8569336,164.2896,7.2553500000001705,-2.2324500000000334,-14.511000000000205,-14.282500000000146,8.789065000000184,-5.490000000000467,11.50007,0,1
575,-6.619131,-3.728145,-23.75297,-45.54932,0.9448242,164.3115,8.929699999999372,-4.464849999999708,-16.18499999999902,-16.479499999999046,4.394529999999706,1.094999999999328,11.52007,0,1
576,-6.540996,-3.772793,-23.90924,-45.7251,1.032715,164.2236,3.906750000000109,-2.2324000000000486,-7.813500000000129,-8.788999999999989,4.394540000000096,-4.39499999999962,11.54007,0,1
577,-6.485186,-3.873252,-24.11016,-45.94482,1.230469,164.0039,2.7905000000000664,-5.0229500000001,-10.046000000000214,-10.986000000000352,9.88770000000021,-10.9850000000011,11.56007,0,1
578,-6.474023,-3.984873,-24.28875,-46.09863,1.538086,163.6304,0.5578710644677296,-5.578260869564945,-8.925037481258927,-7.686656671663795,15.37316341829011,-18.665667166414817,11.58008,0,1
579,-6.496347,-4.096494,-24.43386,-46.16455,1.845703,163.1689,-1.1162000000000354,-5.5810500000001175,-7.255500000000103,-3.2959999999999914,15.38085000000033,-23.075000000000536,11.60008,0,1
580,-6.518672,-4.208115,-24.53432,-46.16455,2.06543,162.7295,-1.116249999999998,-5.58105000000014,-5.023000000000196,0.0,10.986350000000234,-21.97000000000078,11.62008,0,1
581,-6.56332,-4.308574,-24.61245,-46.16455,2.15332,162.3999,-2.2324000000000708,-5.0229500000001,-3.906499999999985,0.0,4.394500000000083,-16.480000000000313,11.64008,0,1
582,-6.619131,-4.409033,-24.6571,-46.14258,2.219238,162.1143,-2.7905499999998256,-5.022949999999653,-2.2324999999998867,1.0984999999997282,3.2958999999997736,-14.27999999999986,11.66008,0,1
583,-6.697266,-4.49833,-24.67942,-46.07666,2.285156,161.8286,-3.9067500000000646,-4.464850000000104,-1.1160000000000518,3.2960000000003467,3.2959000000000884,-14.284999999999874,11.68008,0,1
584,-6.786562,-4.576465,-24.67942,-46.03271,2.329102,161.5869,-4.464800000000097,-3.9067500000000646,0.0,2.19749999999981,2.1973000000000265,-12.08499999999927,11.70008,0,1
585,-6.853535,-4.643437,-24.69059,-45.98877,2.329102,161.4111,-3.348650000000069,-3.348600000000062,-0.558500000000007,2.1970000000000067,0.0,-8.790000000000662,11.72008,0,1
586,-6.909346,-4.732734,-24.69059,-45.9668,2.307129,161.2793,-2.7905499999998256,-4.464849999999708,0.0,1.0985000000000835,-1.0986499999999046,-6.589999999999473,11.74008,0,1
587,-6.965156,-4.833193,-24.67942,-46.03271,2.329102,161.1475,-2.7905000000000664,-5.0229500000001,0.558500000000007,-3.295500000000188,1.0986500000000021,-6.5900000000000585,11.76008,0,1
588,-7.020967,-4.944815,-24.67942,-46.14258,2.416992,160.9937,-2.790550000000029,-5.581100000000147,0.0,-5.493500000000157,4.3945000000001055,-7.6900000000010715,11.78008,0,1
589,-7.065615,-5.07876,-24.69059,-46.31836,2.504883,160.8398,-2.2324000000000708,-6.697250000000131,-0.558500000000007,-8.788999999999989,4.39455000000009,-7.694999999999816,11.80008,0,1
590,-7.087939,-5.246192,-24.70175,-46.51611,2.548828,160.73,-1.1161999999999364,-8.371599999999425,-0.5579999999999764,-9.887499999999292,2.1972499999998467,-5.48999999999998,11.82008,0,1
591,-7.076777,-5.469434,-24.73524,-46.71387,2.614746,160.6641,0.5581000000000399,-11.162100000000235,-1.674500000000059,-9.88800000000033,3.295900000000066,-3.2950000000000292,11.84008,0,1
592,-7.065615,-5.569892,-24.73524,-46.62598,2.614746,160.73,0.5580999999999955,-5.022900000000138,0.0,4.394500000000172,0.0,3.2950000000000292,11.86008,0,1
593,-7.054453,-5.659189,-24.73524,-46.40625,2.702637,160.7739,0.5581000000000399,-4.46485000000006,0.0,10.986500000000156,4.3945500000001125,2.1950000000004377,11.88008,0,1
594,-7.043291,-5.703838,-24.72407,-46.16455,2.702637,160.9277,0.558099999999946,-2.2324499999998797,0.5584999999999574,12.084999999999264,0.0,7.689999999998967,11.90008,0,1
595,-7.020967,-5.715,-24.70175,-45.98877,2.548828,161.2134,1.1162000000000354,-0.5580999999999955,1.1160000000000518,8.788999999999989,-7.69045000000018,14.285000000001295,11.92008,0,1
596,-7.009805,-5.715,-24.69059,-45.87891,2.373047,161.499,0.5580999999999955,0.0,0.5580000000000259,5.493000000000354,-8.789050000000174,14.279999999999708,11.94008,0,1
597,-6.998642,-5.726162,-24.67942,-45.7251,2.175293,161.7847,0.5581500000000025,-0.5581000000000399,0.558500000000007,7.690500000000164,-9.88770000000022,14.284999999999874,11.96008,0,1
598,-6.987481,-5.715,-24.6571,-45.41748,1.999512,162.1143,0.5580500000000329,0.5581000000000399,1.1160000000000518,15.381000000000329,-8.789050000000186,16.480000000000313,11.98008,0,1
599,-6.987481,-5.715,-24.64594,-45.19775,2.043457,162.1143,0.0,0.0,0.5579999999999764,10.98649999999918,2.197249999999858,0.0,12.00008,0,1
600,-6.998642,-5.715,-24.63478,-44.95605,2.197266,161.9824,-0.557771114442822,0.0,0.5577211394303213,12.078960519740695,7.686606696651976,-6.591704147924966,12.02009,0,1
601,-7.009805,-5.715,-24.62361,-44.73633,2.373047,161.7847,-0.5581500000000025,0.0,0.558500000000007,10.985999999999997,8.789050000000197,-9.88500000000151,12.04009,0,1
602,-7.020967,-5.715,-24.62361,-44.58252,2.592773,161.5869,-0.558099999999946,0.0,0.0,7.690499999999481,10.986299999999263,-9.889999999997954,12.06009,0,1
603,-7.032129,-5.715,-24.61245,-44.47266,2.8125,161.3672,-0.5581000000000399,0.0,0.5580000000000259,5.493000000000354,10.986350000000224,-10.9850000000011,12.08009,0,1
604,-7.043291,-5.715,-24.61245,-44.40674,3.032227,161.1255,-0.5580999999999955,0.0,0.0,3.2959999999999914,10.986350000000224,-12.085000000000692,12.10009,0,1
605,-7.054453,-5.715,-24.60129,-44.36279,3.251953,160.9058,-0.5580999999999955,0.0,0.5580000000000259,2.1975000000001654,10.986300000000238,-10.98499999999968,12.12009,0,1
606,-7.054453,-5.715,-24.60129,-44.31885,3.449707,160.686,0.0,0.0,0.0,2.1969999999998118,9.887699999999343,-10.989999999998869,12.14009,0,1
607,-7.043291,-5.715,-24.57896,-44.29688,3.647461,160.4663,0.5580999999999955,0.0,1.116500000000033,1.0984999999998257,9.8877000000002,-10.9850000000011,12.16009,0,1
608,-7.020967,-5.715,-24.54548,-44.23096,3.823242,160.2686,1.1162000000000354,0.0,1.6739999999999002,3.2959999999999914,8.789050000000197,-9.885000000000089,12.18009,0,1
609,-6.987481,-5.726162,-24.48967,-44.14307,3.999023,160.0928,1.674300000000031,-0.5581000000000399,2.790500000000111,4.394500000000172,8.789050000000197,-8.78999999999924,12.20009,0,1
610,-6.942832,-5.726162,-24.4227,-44.0332,4.086914,160.0049,2.2324499999998353,0.0,3.3484999999998393,5.493499999999669,4.3945499999997,-4.3950000000006515,12.22009,0,1
611,-6.887022,-5.737324,-24.34456,-43.90137,4.086914,159.9829,2.7905000000000664,-0.5580999999999955,3.9069999999999663,6.591500000000179,0.0,-1.0999999999995915,12.24009,0,1
612,-6.842373,-5.748487,-24.25526,-43.68164,4.130859,159.917,2.2324500000000334,-0.5581500000000025,4.4650000000001695,10.986500000000156,2.1972500000000417,-3.2950000000000292,12.26009,0,1
613,-6.808887,-5.759648,-24.16597,-43.35205,4.284668,159.7412,1.674300000000031,-0.5580500000000329,4.464500000000011,16.47950000000051,7.690450000000157,-8.790000000000662,12.28009,0,1
614,-6.7754,-5.759648,-24.07667,-42.97852,4.504395,159.5215,1.6743499999998892,0.0,4.464999999999773,18.6764999999985,10.986349999999248,-10.984999999998704,12.30009,0,1
615,-6.730752,-5.759648,-23.99854,-42.73682,4.63623,159.4116,2.2324000000000708,0.0,3.906500000000163,12.085000000000337,6.59175000000017,-5.495000000000633,12.32009,0,1
616,-6.652617,-5.770811,-23.90924,-42.6709,4.592285,159.4336,3.9067500000000646,-0.5581500000000025,4.464999999999992,3.2959999999999914,-2.1972500000000417,1.1000000000010126,12.34009,0,1
617,-6.574482,-5.793135,-23.8311,-42.71484,4.504395,159.5435,3.906750000000109,-1.1162000000000354,3.907000000000144,-2.1970000000000067,-4.394500000000128,5.494999999999212,12.36009,0,1
618,-6.485186,-5.804297,-23.75297,-42.6709,4.482422,159.5874,4.464800000000097,-0.5580999999999955,3.906499999999985,2.1970000000000067,-1.0986500000000243,2.1950000000004377,12.38009,0,1
619,-6.418213,-5.815459,-23.66367,-42.47314,4.592285,159.4995,3.3486499999997714,-0.558099999999946,4.464999999999773,9.887999999999451,5.493149999999665,-4.39499999999923,12.40009,0,1
620,-6.35124,-5.815459,-23.56321,-42.1875,4.724121,159.4336,3.348650000000069,0.0,5.023000000000018,14.282000000000343,6.591800000000132,-3.2950000000000292,12.42009,0,1
621,-6.217295,-5.837783,-23.40694,-41.79199,4.768066,159.4336,6.697250000000131,-1.1162000000000354,7.813500000000307,19.775500000000502,2.1972500000000417,0.0,12.44009,0,1
622,-6.183809,-5.837783,-23.38462,-41.74805,4.790039,159.4336,1.6734632683657311,0.0,1.1154422788603662,2.195902048975366,1.098100949525185,0.0,12.4601,0,1
623,-6.105674,-5.837783,-23.28416,-41.50635,4.855957,159.4336,3.906750000000109,0.0,5.023000000000196,12.085000000000337,3.295900000000066,0.0,12.4801,0,1
624,-6.016377,-5.848945,-23.19486,-41.19873,4.96582,159.4116,4.46485000000006,-0.5580999999999955,4.4650000000001695,15.381000000000329,5.493150000000108,-1.1000000000010126,12.5001,0,1
625,-5.92708,-5.848945,-23.10557,-40.86914,5.075684,159.4336,4.464850000000104,0.0,4.464500000000011,16.479500000000154,5.493200000000115,1.1000000000010126,12.5201,0,1
626,-5.826621,-5.860107,-23.02743,-40.5835,5.141602,159.4775,5.022949999999653,-0.5580999999999904,3.9069999999997966,14.281999999999075,3.2958999999997736,2.1949999999988217,12.5401,0,1
627,-5.726162,-5.860107,-22.9493,-40.42969,5.163574,159.5215,5.0229500000001,0.0,3.906499999999985,7.690500000000164,1.0986000000000173,2.200000000000604,12.5601,0,1
628,-5.603379,-5.87127,-22.87116,-40.29785,5.251465,159.5654,6.139150000000135,-0.5581500000000025,3.907000000000144,6.592000000000338,4.39455000000009,2.1950000000004377,12.5801,0,1
629,-5.536406,-5.882432,-22.82651,-40.20996,5.273438,159.5874,3.348650000000069,-0.5580999999999955,2.2325000000000847,4.394499999999817,1.0986500000000243,1.0999999999995915,12.6001,0,1
630,-5.447109,-5.882432,-22.7707,-39.99023,5.361328,159.6313,4.464849999999708,0.0,2.7904999999996853,10.986499999999536,4.394499999999738,2.1950000000002428,12.6201,0,1
631,-5.335488,-5.893594,-22.71489,-39.70459,5.427246,159.6973,5.58105000000014,-0.5581000000000399,2.790500000000111,14.281999999999988,3.295900000000066,3.300000000000195,12.6401,0,1
632,-5.223867,-5.893594,-22.64792,-39.39697,5.493164,159.7192,5.581050000000095,0.0,3.348500000000137,15.381000000000329,3.295900000000066,1.0949999999994253,12.6601,0,1
633,-5.112246,-5.904756,-22.59211,-39.1333,5.559082,159.6973,5.58105000000014,-0.5580999999999955,2.790499999999933,13.183500000000517,3.295900000000066,-1.0949999999994253,12.6801,0,1
634,-5.000625,-5.904756,-22.54746,-38.93555,5.581055,159.7192,5.5810499999996,0.0,2.2324999999998867,9.887499999999292,1.0986499999999269,1.094999999999328,12.7001,0,1
635,-4.877842,-5.904756,-22.50281,-38.71582,5.559082,159.7632,6.139150000000135,0.0,2.2325000000000847,10.986500000000156,-1.0986500000000243,2.200000000000604,12.7201,0,1
636,-4.676924,-5.915918,-22.42468,-38.25439,5.603027,159.8291,10.045900000000245,-0.5580999999999955,3.906500000000163,23.07150000000049,2.1972500000000417,3.2950000000000292,12.7401,0,1
637,-4.632276,-5.915918,-22.40235,-38.12256,5.625,159.8511,2.2324000000000264,0.0,1.116500000000033,6.591500000000179,1.0986500000000243,1.0999999999995915,12.7601,0,1
638,-4.509492,-5.915918,-22.3577,-37.74902,5.734863,159.7852,6.139200000000142,0.0,2.232499999999907,18.67700000000032,5.493150000000108,-3.2950000000000292,12.7801,0,1
639,-4.397871,-5.904756,-22.31306,-37.39746,5.822754,159.7412,5.5810499999996,0.558099999999946,2.2319999999999056,17.577999999998774,4.3945499999997,-2.2000000000004087,12.8001,0,1
640,-4.28625,-5.904756,-22.26841,-37.13379,5.844727,159.7632,5.58105000000014,0.0,2.2325000000000847,13.183500000000517,1.0986500000000243,1.1000000000010126,12.8201,0,1
641,-4.163467,-5.915918,-22.22376,-36.95801,5.844727,159.8291,6.139150000000135,-0.5580999999999955,2.2325000000000847,8.788999999999989,0.0,3.2950000000000292,12.8401,0,1
642,-3.984873,-5.92708,-22.17911,-36.76025,5.844727,159.939,8.929700000000187,-0.5581000000000399,2.232499999999907,9.88800000000033,0.0,5.494999999999212,12.8601,0,1
643,-3.850928,-5.92708,-22.14562,-36.54053,5.888672,159.939,6.693903048475425,0.0,1.673663168415734,10.980509745127021,2.1961519240378693,0.0,12.88011,0,1
644,-3.761631,-5.92708,-22.1233,-36.34277,5.888672,159.9609,4.464850000000104,0.0,1.1160000000000518,9.887999999999975,0.0,1.0950000000008464,12.90011,0,1
645,-3.638848,-5.915918,-22.10098,-36.0791,5.932617,160.0269,6.139150000000135,0.5581000000000399,1.1160000000000518,13.183500000000517,2.1972500000000417,3.300000000000195,12.92011,0,1
646,-3.504902,-5.915918,-22.06749,-35.90332,5.910645,160.2246,6.697299999999543,0.0,1.6744999999999102,8.78899999999921,-1.0985999999999199,9.88499999999921,12.94011,0,1
647,-3.326308,-5.92708,-22.05633,-35.85938,5.822754,160.5542,8.929700000000187,-0.5581000000000399,0.5580000000000259,2.1970000000000067,-4.39455000000009,16.480000000000313,12.96011,0,1
648,-3.181201,-5.938242,-22.04517,-36.01318,5.712891,160.7959,7.255350000000148,-0.5580999999999955,0.5580000000000259,-7.690000000000006,-5.493150000000108,12.08499999999927,12.98011,0,1
649,-3.024932,-5.938242,-22.034,-36.21094,5.537109,161.0596,7.8134500000001665,0.0,0.558500000000007,-9.88800000000033,-8.78910000000018,13.185000000000283,13.00011,0,1
650,-2.868662,-5.949404,-22.02284,-36.43066,5.339355,161.3892,7.813499999999479,-0.5580999999999904,0.5579999999999764,-10.985999999999377,-9.88769999999932,16.47999999999885,13.02011,0,1
651,-2.712393,-5.960567,-22.01168,-36.58447,5.185547,161.7188,7.8134500000001665,-0.5581500000000025,0.5580000000000259,-7.690500000000164,-7.690400000000195,16.480000000000313,13.04011,0,1
